"Time (s)","X (rad/s)","Y (rad/s)","Z (rad/s)"
1.035620832E-2,-1.068345383E-1,1.067749858E-1,-3.968835995E-2
2.036420834E-2,-1.273848116E-1,1.527725756E-1,-3.951339051E-2
3.037220833E-2,-1.586861610E-1,2.128773183E-1,-2.928135544E-2
4.037920832E-2,-1.987595409E-1,2.771929502E-1,-3.192933649E-2
5.038720834E-2,-2.462317497E-1,3.352519572E-1,-5.739992857E-2
6.039520833E-2,-2.955103517E-1,3.994373381E-1,-9.294088185E-2
7.040320833E-2,-3.387720883E-1,4.906886816E-1,-1.182823852E-1
8.041120833E-2,-3.290539384E-1,6.029126644E-1,-1.302871108E-1
9.041820833E-2,-3.049428463E-1,6.240010858E-1,-1.359018981E-1
1.004256667E-1,-2.779946029E-1,5.761701465E-1,-1.231653392E-1
1.104336667E-1,-2.602933049E-1,5.167948008E-1,-1.315963864E-1
1.204416667E-1,-2.225746810E-1,4.837340713E-1,-1.515445262E-1
1.304486667E-1,-1.615684479E-1,4.278887510E-1,-1.737983376E-1
1.404566667E-1,-7.945839316E-2,3.541935086E-1,-1.974983364E-1
1.504646667E-1,1.833140268E-3,2.883086205E-1,-2.049732059E-1
1.604726667E-1,6.130099297E-2,2.187159657E-1,-1.954481453E-1
1.704806667E-1,9.503151476E-2,1.564832181E-1,-1.715523303E-1
1.804876667E-1,1.043379307E-1,9.901859611E-2,-1.292157918E-1
1.904956667E-1,9.763838351E-2,2.874989621E-2,-7.295122743E-2
2.005036667E-1,9.163055569E-2,-3.551590443E-2,-1.233182475E-2
2.105116667E-1,9.718690068E-2,-8.726193756E-2,3.948832676E-2
2.205186667E-1,1.016128063E-1,-1.239586994E-1,6.959003210E-2
2.305266667E-1,9.063737839E-2,-1.505943686E-1,5.688069388E-2
2.405346667E-1,9.433624893E-2,-1.653839648E-1,-4.719553515E-3
2.505426667E-1,1.016877070E-1,-1.763726175E-1,-9.429426491E-2
2.605506667E-1,9.475736320E-2,-1.681897938E-1,-1.705964804E-1
2.705576667E-1,6.412649155E-2,-1.403423995E-1,-2.119828761E-1
2.805656667E-1,1.856433228E-2,-9.241189063E-2,-2.187270522E-1
2.905736667E-1,-1.326710079E-2,-7.168902084E-3,-2.049153745E-1
3.005816667E-1,-3.483057395E-2,7.273911685E-2,-1.719607860E-1
3.105886667E-1,-6.185629219E-2,1.251861304E-1,-1.414203942E-1
3.205966667E-1,-9.488615394E-2,1.528135091E-1,-1.222546920E-1
3.306046667E-1,-1.245641857E-1,1.565717012E-1,-1.203593835E-1
3.406126667E-1,-1.515185833E-1,1.496573389E-1,-1.357817501E-1
3.506196667E-1,-1.689999402E-1,1.379827559E-1,-1.596462876E-1
3.606276667E-1,-1.504006982E-1,1.621152461E-1,-1.717690080E-1
3.706356667E-1,-9.816354513E-2,2.237828821E-1,-1.638828069E-1
3.806436667E-1,-3.808742389E-2,2.789553404E-1,-1.335520595E-1
3.906516667E-1,1.302617230E-2,2.981103957E-1,-1.018661410E-1
4.006586667E-1,4.578598216E-2,2.690904737E-1,-6.594941765E-2
4.106666667E-1,4.466034472E-2,1.777657419E-1,-5.390195549E-2
4.206746667E-1,3.226226196E-2,6.020954251E-2,-6.210102886E-2
4.306826667E-1,2.760654688E-2,-4.453971609E-2,-6.705597043E-2
4.406896667E-1,4.600579664E-2,-1.006751582E-1,-5.501635373E-2
4.506976667E-1,9.915214777E-2,-9.230957925E-2,-1.626197435E-2
4.607056667E-1,1.898357123E-1,-4.420996457E-2,4.111902416E-2
4.707136667E-1,3.053133488E-1,3.927220590E-3,1.028032824E-1
4.807216667E-1,4.114440382E-1,1.601051539E-2,1.389298588E-1
4.907286667E-1,4.827836156E-1,-2.068717033E-2,1.450972259E-1
5.007366667E-1,5.118690133E-1,-1.079863906E-1,1.203982830E-1
5.107446667E-1,5.065837502E-1,-2.364511639E-1,6.427276880E-2
5.207526667E-1,4.579570889E-1,-3.775659204E-1,-8.226998150E-3
5.307596667E-1,3.805523813E-1,-4.923712909E-1,-8.136600256E-2
5.407676667E-1,2.857329249E-1,-5.547670126E-1,-1.381235570E-1
5.507756667E-1,1.823233515E-1,-5.499393940E-1,-1.717868447E-1
5.607836667E-1,8.657872677E-2,-4.672079980E-1,-1.801776588E-1
5.707906667E-1,2.888589865E-3,-3.249014616E-1,-1.759020686E-1
5.807986667E-1,-6.971611083E-2,-1.481991261E-1,-1.746357381E-1
5.908066667E-1,-1.298994869E-1,3.887873143E-2,-1.852250844E-1
6.008146667E-1,-1.754454076E-1,2.049185634E-1,-1.976532638E-1
6.108226667E-1,-2.115395069E-1,3.397096395E-1,-2.251465172E-1
6.208296667E-1,-2.355276644E-1,4.294690788E-1,-2.491168380E-1
6.308376667E-1,-2.466288507E-1,4.794733524E-1,-2.534481883E-1
6.408456667E-1,-2.453910112E-1,4.950653613E-1,-2.354590744E-1
6.508536667E-1,-2.345776111E-1,4.733437002E-1,-2.126728445E-1
6.608606667E-1,-2.208548635E-1,4.206868708E-1,-1.908469051E-1
6.708686667E-1,-1.964085847E-1,3.484229147E-1,-1.772757769E-1
6.808766667E-1,-1.507188529E-1,2.661946118E-1,-1.634989679E-1
6.908846667E-1,-9.321036190E-2,1.736262441E-1,-1.406676322E-1
7.008916667E-1,-2.221075445E-2,1.060661003E-1,-1.061458588E-1
7.108996667E-1,3.980968520E-2,4.797237366E-2,-7.338071615E-2
7.209076667E-1,8.258138597E-2,-2.823694609E-3,-4.243744537E-2
7.309156667E-1,1.198871061E-1,-3.337001055E-2,-1.940933242E-2
7.409226667E-1,1.369073540E-1,-7.365671545E-2,-5.767289549E-3
7.509306667E-1,1.377898753E-1,-1.183445826E-1,-8.119372651E-3
7.609386667E-1,1.326497048E-1,-1.756017357E-1,-2.763661370E-2
7.709466667E-1,1.233739629E-1,-2.364304513E-1,-6.053139642E-2
7.809546667E-1,1.024210081E-1,-2.893192470E-1,-1.067252532E-1
7.909616667E-1,6.712926924E-2,-3.093193173E-1,-1.526107043E-1
8.009696667E-1,1.915908232E-2,-2.837497890E-1,-1.937419027E-1
8.109776667E-1,-4.644441232E-2,-2.347284406E-1,-2.186949849E-1
8.209856667E-1,-1.263490915E-1,-1.754536629E-1,-2.263222784E-1
8.309926667E-1,-2.074792385E-1,-7.770007849E-2,-2.136471421E-1
8.410006667E-1,-2.677295208E-1,2.997871488E-2,-1.786084622E-1
8.510086667E-1,-3.168334961E-1,1.030509844E-1,-1.455262452E-1
8.610166667E-1,-3.451660573E-1,1.406854391E-1,-1.319553107E-1
8.710236667E-1,-3.431403935E-1,1.444240063E-1,-1.359753609E-1
8.810316667E-1,-3.030276000E-1,1.134565175E-1,-1.422545612E-1
8.910396667E-1,-2.333731800E-1,5.937252939E-2,-1.382680088E-1
9.010476667E-1,-1.608033776E-1,-2.615169249E-2,-1.293954253E-1
9.110546667E-1,-1.108286604E-1,-1.453929096E-1,-1.165596470E-1
9.210626667E-1,-1.039515808E-1,-2.762020528E-1,-1.058513448E-1
9.310706667E-1,-1.314083636E-1,-3.911306560E-1,-1.004729941E-1
9.410786667E-1,-1.729115993E-1,-4.848582149E-1,-1.076659262E-1
9.510866667E-1,-2.028969377E-1,-5.361501575E-1,-1.185156405E-1
9.610936667E-1,-1.919966191E-1,-4.972107112E-1,-1.100784764E-1
9.711016667E-1,-1.441166103E-1,-3.859757185E-1,-7.569242269E-2
9.811096667E-1,-6.223160401E-2,-2.445919514E-1,-2.422364429E-2
9.911176667E-1,3.511700034E-2,-1.085777506E-1,2.472872287E-2
1.001124667E0,1.155817434E-1,-1.529494394E-2,5.707867444E-2
1.011132667E0,1.727149040E-1,3.626745567E-2,6.185697392E-2
1.021140667E0,1.990612894E-1,4.025713727E-2,3.953169286E-2
1.031148667E0,2.058905214E-1,2.750121802E-2,5.518636666E-3
1.041155667E0,2.043906301E-1,1.688665897E-2,-1.261189673E-2
1.051163667E0,2.024037987E-1,-3.423802555E-3,-5.526193418E-3
1.061171667E0,2.020069808E-1,-1.744188368E-2,1.539187040E-2
1.071179667E0,2.153438777E-1,-9.229462594E-3,4.289431497E-2
1.081186667E0,2.400367111E-1,1.525244303E-2,6.954297423E-2
1.091194667E0,2.566523850E-1,2.032702975E-2,8.732684702E-2
1.101203083E0,2.640948594E-1,1.442333311E-2,8.086042106E-2
1.111211083E0,2.642554045E-1,-3.574855160E-3,6.192921847E-2
1.121218083E0,2.493443638E-1,-3.606835008E-2,2.461167611E-2
1.131226083E0,2.206720412E-1,-7.845702767E-2,-2.759481594E-2
1.141234083E0,1.783211082E-1,-1.403156072E-1,-7.956933230E-2
1.151242083E0,1.132755056E-1,-2.199254930E-1,-1.322323978E-1
1.161250083E0,4.315766692E-2,-2.895075083E-1,-1.851392835E-1
1.171257083E0,-2.484131232E-2,-3.454253376E-1,-2.219342738E-1
1.181265083E0,-8.102095872E-2,-3.658672273E-1,-2.403843850E-1
1.191273083E0,-9.973923862E-2,-3.270601630E-1,-2.314447612E-1
1.201281083E0,-8.664980531E-2,-2.339624166E-1,-2.082475573E-1
1.211288083E0,-5.646098405E-2,-1.147715673E-1,-1.655774564E-1
1.221296083E0,-2.338851802E-2,4.014742561E-3,-1.159380004E-1
1.231304083E0,5.490841344E-3,8.697571605E-2,-7.793436944E-2
1.241312083E0,2.181735076E-2,1.245734319E-1,-5.379335210E-2
1.251319083E0,2.817641944E-2,1.204726547E-1,-4.516963288E-2
1.261327083E0,3.508812189E-2,8.538816869E-2,-5.732589960E-2
1.271335083E0,4.066251218E-2,2.930478938E-2,-7.901052386E-2
1.281343083E0,4.193869978E-2,-3.341931105E-2,-1.047523692E-1
1.291350083E0,3.445958719E-2,-8.877938986E-2,-1.201249585E-1
1.301358083E0,5.762161687E-3,-1.286053509E-1,-1.216392294E-1
1.311366083E0,-3.276971355E-2,-1.491510421E-1,-1.195420697E-1
1.321374083E0,-7.458347082E-2,-1.489233375E-1,-1.129523441E-1
1.331381083E0,-1.104681864E-1,-1.394826472E-1,-1.151966080E-1
1.341389083E0,-1.366302818E-1,-1.220594570E-1,-1.178869382E-1
1.351397083E0,-1.553646624E-1,-9.315122664E-2,-1.095109954E-1
1.361405083E0,-1.800297946E-1,-5.335826799E-2,-8.969494700E-2
1.371412083E0,-2.095590234E-1,-9.136835113E-3,-6.314247847E-2
1.381420083E0,-2.513093948E-1,3.978916258E-2,-3.652737662E-2
1.391428083E0,-2.850098908E-1,9.193754941E-2,-5.972450599E-3
1.401436083E0,-2.921713889E-1,1.395849735E-1,3.149342909E-2
1.411443083E0,-2.801019549E-1,1.650394648E-1,6.556139141E-2
1.421451083E0,-2.531869709E-1,1.681420505E-1,8.517796546E-2
1.431459083E0,-2.133367211E-1,1.604934782E-1,9.264712036E-2
1.441467083E0,-1.672933251E-1,1.454585940E-1,9.918890893E-2
1.451475083E0,-1.163215712E-1,1.382141709E-1,9.758503735E-2
1.461482083E0,-7.276823372E-2,1.281759143E-1,8.805704862E-2
1.471490083E0,-5.676135793E-2,1.026081741E-1,8.518829942E-2
1.481498083E0,-7.324020565E-2,8.400040120E-2,7.682651281E-2
1.491506083E0,-8.751309663E-2,8.392298967E-2,7.837166637E-2
1.501513083E0,-8.339105546E-2,1.072948873E-1,9.689315408E-2
1.511521083E0,-4.497590289E-2,1.576143652E-1,1.259860396E-1
1.521529083E0,2.732705325E-2,2.295761704E-1,1.583559662E-1
1.531537083E0,9.916076809E-2,2.699829638E-1,1.821076274E-1
1.541544083E0,1.493991762E-1,2.637690008E-1,1.855715960E-1
1.551552083E0,1.708847880E-1,2.154763788E-1,1.762662977E-1
1.561560083E0,1.349161416E-1,1.236090288E-1,1.536549926E-1
1.571568083E0,3.963075951E-2,1.355109736E-2,1.269924045E-1
1.581575083E0,-1.089366078E-1,-8.279008418E-2,1.104155481E-1
1.591583083E0,-2.831211388E-1,-1.463738084E-1,1.091735065E-1
1.601591083E0,-4.445438683E-1,-1.795879453E-1,1.156612337E-1
1.611599083E0,-5.534377098E-1,-1.986773461E-1,1.062821448E-1
1.621606083E0,-5.764229298E-1,-2.321809828E-1,6.137006357E-2
1.631614083E0,-4.987545609E-1,-2.840684950E-1,8.025696501E-3
1.641622083E0,-3.397638500E-1,-3.216488957E-1,-2.310985141E-2
1.651630083E0,-1.432385743E-1,-3.335846663E-1,-1.014084741E-2
1.661637083E0,4.363543913E-2,-3.505439460E-1,2.963665873E-2
1.671645083E0,1.666066796E-1,-3.844313025E-1,8.359821886E-2
1.681653083E0,2.244774252E-1,-4.196345806E-1,1.359570324E-1
1.691661083E0,2.253045589E-1,-4.401119351E-1,1.923353672E-1
1.701668083E0,1.730858237E-1,-4.193376899E-1,2.326020896E-1
1.711676083E0,8.862852305E-2,-3.517487347E-1,2.566770613E-1
1.721684083E0,1.952748164E-3,-2.613717020E-1,2.630790174E-1
1.731692083E0,-5.713798851E-2,-1.747680753E-1,2.624422014E-1
1.741699083E0,-9.374926239E-2,-1.165191531E-1,2.651876509E-1
1.751707083E0,-9.987829626E-2,-8.840633929E-2,2.760556638E-1
1.761715083E0,-8.548258245E-2,-1.000478119E-1,2.866835594E-1
1.771723083E0,-5.382085219E-2,-1.543015093E-1,2.895627320E-1
1.781730083E0,-2.009005286E-2,-2.413868755E-1,2.832683623E-1
1.791738083E0,4.441023339E-3,-3.476681411E-1,2.741323411E-1
1.801746083E0,1.947909594E-2,-4.301044047E-1,2.507228851E-1
1.811754083E0,3.894487023E-2,-4.645759165E-1,2.141031623E-1
1.821761083E0,6.535889953E-2,-4.308158159E-1,1.728659719E-1
1.831769083E0,1.024732441E-1,-3.319105506E-1,1.401397288E-1
1.841777083E0,1.383696347E-1,-1.900469810E-1,1.155054346E-1
1.851785083E0,1.709051579E-1,-2.734946460E-2,1.022934392E-1
1.861792083E0,1.882673651E-1,1.082051694E-1,1.056114733E-1
1.871800083E0,1.711136401E-1,1.845789999E-1,1.078157127E-1
1.881808083E0,1.464778036E-1,2.419826388E-1,1.046566740E-1
1.891816083E0,1.260647327E-1,2.813772559E-1,9.692870080E-2
1.901823083E0,1.171745658E-1,3.087729216E-1,7.956835628E-2
1.911831083E0,1.177546084E-1,3.163711727E-1,6.550286710E-2
1.921839083E0,1.061853021E-1,2.769960761E-1,4.996652156E-2
1.931847083E0,8.798398077E-2,2.161463499E-1,2.837306261E-2
1.941854083E0,6.109431386E-2,1.487571895E-1,1.014780719E-4
1.951862083E0,3.048657067E-2,7.345736027E-2,-3.783085197E-2
1.961870083E0,-5.850397516E-3,1.089224406E-2,-7.512389868E-2
1.971878083E0,-5.408075824E-2,-4.011633247E-2,-1.039694622E-1
1.981885083E0,-1.118010506E-1,-7.256615162E-2,-1.258523911E-1
1.991893083E0,-1.718644798E-1,-7.683902234E-2,-1.378875226E-1
2.001901083E0,-2.303586900E-1,-5.369908363E-2,-1.484434903E-1
2.011909083E0,-2.685392201E-1,-1.028781943E-2,-1.571468711E-1
2.021916083E0,-2.862428427E-1,4.883142561E-2,-1.638045013E-1
2.031924083E0,-2.707661092E-1,1.202931330E-1,-1.760802865E-1
2.041932083E0,-2.243240476E-1,2.009554952E-1,-1.928859055E-1
2.051940083E0,-1.757403761E-1,2.521581054E-1,-2.133046091E-1
2.061947083E0,-1.567917168E-1,2.501740456E-1,-2.454953045E-1
2.071955083E0,-1.589638293E-1,2.176453620E-1,-2.721346915E-1
2.081963083E0,-1.831551939E-1,1.420448720E-1,-2.831401825E-1
2.091971083E0,-2.231621444E-1,5.356387421E-2,-2.795109153E-1
2.101978417E0,-2.568977177E-1,-2.150025032E-2,-2.529802620E-1
2.111986417E0,-2.595713437E-1,-6.925000250E-2,-2.222933769E-1
2.121994417E0,-2.213011980E-1,-5.593925714E-2,-1.937285662E-1
2.132002417E0,-1.708494574E-1,-2.292696014E-2,-1.713146865E-1
2.142009417E0,-1.467848718E-1,-1.406902075E-2,-1.611272991E-1
2.152017417E0,-1.661786437E-1,-4.774958268E-2,-1.695383936E-1
2.162025417E0,-2.302383184E-1,-1.141030416E-1,-1.992006898E-1
2.172033417E0,-3.224239647E-1,-2.072213441E-1,-2.402079552E-1
2.182040417E0,-4.277034998E-1,-3.242984414E-1,-2.844665051E-1
2.192048417E0,-5.158538818E-1,-4.129906893E-1,-3.502601087E-1
2.202056417E0,-5.415911674E-1,-4.291057289E-1,-4.091295600E-1
2.212064417E0,-4.939638972E-1,-3.672313690E-1,-4.279244840E-1
2.222071417E0,-4.000837505E-1,-2.289805412E-1,-4.183863699E-1
2.232079417E0,-2.686255276E-1,-5.254447833E-2,-3.830590248E-1
2.242087417E0,-1.148647219E-1,9.041400999E-2,-3.148426712E-1
2.252095417E0,3.152804822E-2,1.693774015E-1,-2.398791313E-1
2.262102417E0,1.509551108E-1,1.866267025E-1,-1.901240945E-1
2.272110417E0,2.298391163E-1,1.640410721E-1,-1.613385379E-1
2.282118417E0,2.699692249E-1,9.441220015E-2,-1.445222795E-1
2.292126417E0,2.684591413E-1,-1.489600167E-2,-1.261186153E-1
2.302133417E0,2.335597277E-1,-1.336681843E-1,-1.143091023E-1
2.312141417E0,1.917135417E-1,-2.439762503E-1,-1.007488295E-1
2.322149417E0,1.573169529E-1,-3.306360841E-1,-8.342815936E-2
2.332156417E0,1.383957565E-1,-3.797708154E-1,-6.509243697E-2
2.342164417E0,1.295205057E-1,-3.891027868E-1,-5.316999927E-2
2.352172417E0,1.146795526E-1,-3.606154621E-1,-5.211612955E-2
2.362180417E0,9.703104943E-2,-3.028328419E-1,-5.816177279E-2
2.372187417E0,8.362412453E-2,-2.232536376E-1,-7.255780697E-2
2.382195417E0,9.034567326E-2,-1.175269559E-1,-7.585266978E-2
2.392203417E0,1.004845500E-1,-1.626376435E-2,-7.207956165E-2
2.402211417E0,1.094809771E-1,8.213204890E-2,-6.849175692E-2
2.412218417E0,1.093785465E-1,1.490797698E-1,-5.357774347E-2
2.422226417E0,8.399569243E-2,1.509221345E-1,-4.819336534E-2
2.432234417E0,5.187524855E-2,1.304396987E-1,-6.422957033E-2
2.442242417E0,1.396328397E-2,1.085410640E-1,-7.846656442E-2
2.452249417E0,-3.088029660E-2,6.822965294E-2,-9.068170190E-2
2.462257417E0,-6.713550538E-2,3.357952833E-2,-1.017740369E-1
2.472265417E0,-9.129737318E-2,1.024590805E-2,-9.943009913E-2
2.482273417E0,-1.027095541E-1,1.342161093E-3,-9.030291438E-2
2.492280417E0,-9.526032209E-2,1.661815308E-2,-7.507038862E-2
2.502288417E0,-7.842621207E-2,2.738664672E-2,-5.505646765E-2
2.512296417E0,-6.383632123E-2,3.500704095E-2,-3.010225855E-2
2.522304417E0,-5.243959278E-2,3.934719414E-2,-1.258611493E-2
2.532311417E0,-6.064718962E-2,1.836814173E-2,2.262089401E-5
2.542319417E0,-1.047861502E-1,-1.814592816E-2,-1.347575337E-3
2.552327417E0,-1.687101275E-1,-4.461919144E-2,-1.927488297E-2
2.562335417E0,-2.243944257E-1,-4.438003898E-2,-3.527675197E-2
2.572342417E0,-2.425418198E-1,1.033558510E-2,-4.427941144E-2
2.582350417E0,-2.206335962E-1,1.367342770E-1,-3.042564914E-2
2.592358417E0,-1.689836681E-1,3.108533919E-1,1.161126792E-2
2.602366417E0,-1.061929762E-1,4.855096042E-1,7.711064816E-2
2.612373417E0,-4.138126224E-2,6.301445365E-1,1.487424374E-1
2.622381417E0,1.154081058E-2,7.025747895E-1,2.061178386E-1
2.632389417E0,3.468887135E-2,6.738911271E-1,2.233158350E-1
2.642397417E0,3.079266846E-2,5.635012388E-1,1.973755807E-1
2.652404417E0,2.761368267E-2,4.024620056E-1,1.450970620E-1
2.662412417E0,3.968153149E-2,2.373108566E-1,8.826786280E-2
2.672420417E0,7.685874403E-2,1.223344877E-1,5.205706134E-2
2.682428417E0,1.411210895E-1,8.257588744E-2,4.765858501E-2
2.692435417E0,2.152797580E-1,1.143492833E-1,6.321297586E-2
2.702443417E0,2.681362927E-1,1.976425648E-1,9.081584215E-2
2.712451417E0,2.700094879E-1,2.992655337E-1,1.081712767E-1
2.722458417E0,1.960625648E-1,3.834509850E-1,1.030425578E-1
2.732466417E0,2.575427666E-2,4.011506736E-1,6.167852879E-2
2.742474417E0,-2.292095721E-1,3.408697546E-1,-1.553050615E-2
2.752482417E0,-5.162072778E-1,2.190774977E-1,-1.044740155E-1
2.762489417E0,-7.547061443E-1,1.151742712E-1,-1.637570411E-1
2.772497417E0,-8.600538373E-1,1.055051610E-1,-1.577898413E-1
2.782505417E0,-7.910878062E-1,2.039574236E-1,-7.908597589E-2
2.792513417E0,-5.718313456E-1,3.667940199E-1,5.591617525E-2
2.802520417E0,-2.685436308E-1,5.017076731E-1,2.066287249E-1
2.812528417E0,2.857353911E-2,5.076284409E-1,3.182637691E-1
2.822536417E0,2.544077337E-1,3.500337303E-1,3.577216864E-1
2.832544417E0,3.808609247E-1,7.814592868E-2,3.209196925E-1
2.842551417E0,4.281139076E-1,-2.366173267E-1,2.392924726E-1
2.852559417E0,4.189440012E-1,-5.205980539E-1,1.568723917E-1
2.862567417E0,3.918141127E-1,-6.978119612E-1,1.032275409E-1
2.872575417E0,3.787418902E-1,-7.545765638E-1,9.412088990E-2
2.882582417E0,3.972045183E-1,-7.296043634E-1,1.229757145E-1
2.892590417E0,4.395158887E-1,-6.574165821E-1,1.701708883E-1
2.902598417E0,4.943820536E-1,-5.643764138E-1,2.173426598E-1
2.912606417E0,5.439159274E-1,-4.663700461E-1,2.464320511E-1
2.922613417E0,5.756035447E-1,-3.630170226E-1,2.514113784E-1
2.932621417E0,5.730739832E-1,-2.497283816E-1,2.282221317E-1
2.942629417E0,5.445691347E-1,-1.362084746E-1,1.971904486E-1
2.952636417E0,4.904408753E-1,-1.631433144E-2,1.752389371E-1
2.962644417E0,4.189144969E-1,1.133933291E-1,1.581475586E-1
2.972652417E0,3.460466862E-1,2.367083728E-1,1.522046626E-1
2.982660417E0,2.772646844E-1,3.262355924E-1,1.561200470E-1
2.992667417E0,2.049527615E-1,3.562936485E-1,1.607427448E-1
3.002675417E0,1.294790357E-1,3.350181878E-1,1.546843201E-1
3.012683417E0,5.774351582E-2,2.810139954E-1,1.358918697E-1
3.022691417E0,-1.736854576E-2,2.094599307E-1,1.126374155E-1
3.032698417E0,-8.828147501E-2,1.295963973E-1,9.194029123E-2
3.042706417E0,-1.454164088E-1,6.404960901E-2,7.297246158E-2
3.052714417E0,-1.759956330E-1,1.347749494E-2,6.853277236E-2
3.062722417E0,-1.786601245E-1,-2.244428732E-2,7.408653200E-2
3.072729417E0,-1.532873809E-1,-5.126499757E-2,8.311884105E-2
3.082737417E0,-1.089398861E-1,-9.997474402E-2,9.826556593E-2
3.092745417E0,-6.538961083E-2,-1.600347459E-1,1.091201752E-1
3.102751958E0,-2.148446813E-2,-2.082065344E-1,1.115543097E-1
3.112759958E0,7.135459222E-3,-2.494216114E-1,9.970377386E-2
3.122767958E0,1.800621673E-2,-2.768351138E-1,7.666370273E-2
3.132775958E0,1.681521349E-2,-2.861604989E-1,4.209794477E-2
3.142782958E0,1.867862605E-2,-2.603576779E-1,1.349985506E-2
3.152790958E0,3.160157055E-2,-1.982490718E-1,-1.039061882E-2
3.162798958E0,6.196507066E-2,-9.962821752E-2,-1.650976390E-2
3.172806958E0,9.502826631E-2,-5.077955313E-3,-1.081221085E-2
3.182813958E0,1.156307459E-1,8.087503165E-2,-5.541549064E-3
3.192821958E0,1.183080450E-1,1.547324806E-1,-8.199721575E-3
3.202829958E0,8.339613676E-2,1.771400422E-1,-1.562195085E-2
3.212837958E0,2.657314390E-2,1.702838540E-1,-2.718129009E-2
3.222844958E0,-3.887377679E-2,1.200997680E-1,-3.722593188E-2
3.232852958E0,-8.693665266E-2,4.259191826E-2,-4.094736651E-2
3.242860958E0,-9.383610636E-2,-3.797323257E-2,-3.522902355E-2
3.252868958E0,-5.392980948E-2,-1.095356867E-1,-1.046985574E-2
3.262875958E0,1.672598347E-2,-1.718408763E-1,1.789014600E-2
3.272883958E0,9.674992412E-2,-2.360963523E-1,3.768623620E-2
