"Time (s)","X (rad/s)","Y (rad/s)","Z (rad/s)"
1.292229167E-2,-9.909392148E-2,7.759501785E-2,6.292966660E-3
2.293129166E-2,-1.313844919E-1,1.047347561E-1,1.518153306E-2
3.294029166E-2,-9.696263820E-2,3.403044865E-2,-2.684836462E-2
4.294929167E-2,-5.616407469E-2,-5.283933599E-3,-8.875087649E-2
5.295729166E-2,-1.933319680E-2,2.329223417E-2,-1.574176252E-1
6.296629166E-2,-1.400535461E-3,6.285748631E-2,-1.993669420E-1
7.297529167E-2,1.744407602E-2,8.886749297E-2,-1.612448692E-1
8.298329166E-2,2.936758101E-2,4.123951495E-2,-1.047328636E-1
9.299229166E-2,3.452846035E-2,-7.519897074E-3,-6.207371876E-2
1.030012917E-1,5.013724789E-2,-4.998400062E-2,-1.924982481E-2
1.130102917E-1,6.463875622E-2,-5.293874070E-2,1.733873412E-2
1.230182917E-1,8.407130837E-2,-2.562242933E-2,4.006535187E-2
1.330272917E-1,1.021323055E-1,-2.111797221E-3,5.786236376E-2
1.430362917E-1,1.040207520E-1,8.804766461E-3,7.922384143E-2
1.530442917E-1,9.818845987E-2,4.571157508E-3,1.066675484E-1
1.630532917E-1,9.411063045E-2,-1.003441587E-2,1.367538124E-1
1.730622917E-1,9.174673259E-2,-2.868157998E-2,1.548284292E-1
1.830702917E-1,8.604916185E-2,-4.721212015E-2,1.600133330E-1
1.930792917E-1,8.205275238E-2,-6.177378818E-2,1.504950076E-1
2.030882917E-1,7.593600452E-2,-6.023607776E-2,1.345732957E-1
2.130972917E-1,5.865133181E-2,-4.396263883E-2,1.134111285E-1
2.231052917E-1,2.831712924E-2,-1.104783453E-2,9.198839217E-2
2.331142917E-1,-1.372822467E-2,2.195822820E-2,9.208619595E-2
2.431232917E-1,-5.118371919E-2,4.583320022E-2,1.188203320E-1
2.531312917E-1,-8.832678944E-2,4.478437454E-2,1.414786130E-1
2.631402917E-1,-1.169195473E-1,3.318950534E-2,1.580576003E-1
2.731492917E-1,-1.413178444E-1,1.926552504E-2,1.521573514E-1
2.831572917E-1,-1.546983570E-1,1.945407689E-2,1.469844133E-1
2.931662917E-1,-1.570130885E-1,2.264788561E-2,1.406343877E-1
3.031752917E-1,-1.475191861E-1,3.441559523E-2,1.277721226E-1
3.131842917E-1,-1.284359992E-1,4.768608510E-2,1.099043339E-1
3.231922917E-1,-9.997718781E-2,6.092678756E-2,9.458370507E-2
3.332012917E-1,-6.412723660E-2,7.210322469E-2,7.850985974E-2
3.432102917E-1,-3.300553188E-2,9.192166477E-2,6.892994046E-2
3.532182917E-1,-1.796560548E-2,1.071457192E-1,6.345180422E-2
3.632272917E-1,-1.627103612E-2,1.042687073E-1,6.279267371E-2
3.732362917E-1,-1.258732751E-2,9.628932923E-2,6.657439470E-2
3.832442917E-1,-7.001613267E-3,9.117339551E-2,6.262865663E-2
3.932532917E-1,-1.273654681E-2,8.777055889E-2,4.954593629E-2
4.032622917E-1,-2.728992328E-2,8.763980120E-2,3.880940005E-2
4.132712917E-1,-5.231577158E-2,7.977226377E-2,3.644596413E-2
4.232792917E-1,-7.437127829E-2,6.413231790E-2,3.450984880E-2
4.332882917E-1,-7.888235152E-2,3.277515247E-2,2.839486115E-2
4.432972917E-1,-4.868184030E-2,8.927609771E-3,2.998743206E-2
4.533052917E-1,7.966475561E-3,9.859494865E-3,3.867449984E-2
4.633142917E-1,8.084547520E-2,3.854200616E-2,5.264917016E-2
4.733232917E-1,1.554258466E-1,9.079448879E-2,7.521536201E-2
4.833312917E-1,2.038437128E-1,1.187638044E-1,1.060920507E-1
4.933402917E-1,1.957409531E-1,1.127847731E-1,1.206182688E-1
5.033492917E-1,1.342413723E-1,9.271971881E-2,1.280988157E-1
5.133582917E-1,4.100764915E-2,4.891894013E-2,1.177689433E-1
5.233662917E-1,-5.718762800E-2,-2.204684541E-2,1.033327505E-1
5.333752917E-1,-1.286338270E-1,-7.787004858E-2,8.613227308E-2
5.433842917E-1,-1.510312706E-1,-1.041589081E-1,7.210060954E-2
5.533922917E-1,-1.377975643E-1,-8.964182436E-2,7.143909484E-2
5.634012917E-1,-1.077424660E-1,-4.041462019E-2,8.489099145E-2
5.734102917E-1,-7.224162668E-2,2.327212319E-2,9.968730807E-2
5.834182917E-1,-3.913373873E-2,8.146059513E-2,1.156265959E-1
5.934272917E-1,-1.540263835E-2,1.257260740E-1,1.332136095E-1
6.034362917E-1,-7.969174476E-6,1.419599056E-1,1.544802934E-1
6.134442917E-1,9.289267473E-3,1.272497773E-1,1.734059453E-1
6.234532917E-1,-1.275492366E-3,9.723194689E-2,1.864474416E-1
6.334622917E-1,-4.093230143E-2,4.687463492E-2,1.957548410E-1
6.434712917E-1,-1.312701851E-1,2.438459080E-3,1.854055375E-1
6.534792917E-1,-2.449809462E-1,-2.442806959E-2,1.646648198E-1
6.634882917E-1,-3.436944783E-1,-4.512669146E-2,1.237536073E-1
6.734972917E-1,-3.841278255E-1,-5.926914886E-2,7.356482744E-2
6.835052917E-1,-4.054243267E-1,-9.032959491E-2,2.401112393E-2
6.935142917E-1,-3.954867721E-1,-8.413119614E-2,-2.235779166E-2
7.035232917E-1,-3.514024019E-1,-6.718656421E-2,-6.499926001E-2
7.135312917E-1,-2.674359381E-1,-2.211511321E-2,-9.762910753E-2
7.235402917E-1,-1.317308247E-1,1.232408546E-2,-1.242335588E-1
7.335492917E-1,2.722091414E-2,1.583398506E-2,-1.422067136E-1
7.435572917E-1,1.491896957E-1,7.916530594E-4,-1.572114974E-1
7.535662917E-1,2.025775164E-1,-2.293050289E-2,-1.654703617E-1
7.635752917E-1,1.958831251E-1,-4.738524184E-2,-1.612519175E-1
7.735842917E-1,1.439466178E-1,-7.860372961E-2,-1.605589092E-1
7.835922917E-1,6.194814295E-2,-1.061248407E-1,-1.699396372E-1
7.936012917E-1,-2.777970396E-2,-1.282919347E-1,-1.888151020E-1
8.036102917E-1,-9.911966324E-2,-1.420016140E-1,-2.218257785E-1
8.136182917E-1,-1.356347054E-1,-1.324098110E-1,-2.657532096E-1
8.236264583E-1,-1.504575908E-1,-1.191336811E-1,-3.038902283E-1
8.336354583E-1,-1.547096968E-1,-1.031140536E-1,-3.289645016E-1
8.436434583E-1,-1.574522257E-1,-8.804721385E-2,-3.404704034E-1
8.536524583E-1,-1.583492309E-1,-9.848923981E-2,-3.700293005E-1
8.636614583E-1,-1.545023024E-1,-1.177358925E-1,-4.102382362E-1
8.736694583E-1,-1.369496584E-1,-1.233440787E-1,-4.458971322E-1
8.836784583E-1,-9.452711046E-2,-1.302882731E-1,-4.606827497E-1
8.936874583E-1,-3.624244034E-2,-1.404841989E-1,-4.626159966E-1
9.036954583E-1,2.560255304E-2,-1.565513164E-1,-4.466202557E-1
9.137044583E-1,8.643915504E-2,-1.892904639E-1,-4.383528531E-1
9.237134583E-1,1.422699392E-1,-2.335191816E-1,-4.394170642E-1
9.337214583E-1,1.945062429E-1,-2.943159342E-1,-4.577025771E-1
9.437304583E-1,2.213383913E-1,-3.477011323E-1,-4.766246080E-1
9.537394583E-1,2.338225394E-1,-3.616643250E-1,-5.048590302E-1
9.637484583E-1,2.376484424E-1,-3.571380079E-1,-5.334416628E-1
9.737564583E-1,2.458948344E-1,-3.295368850E-1,-5.800672174E-1
9.837654583E-1,2.604732513E-1,-2.535766065E-1,-6.072205305E-1
9.937744583E-1,2.865650952E-1,-1.433983892E-1,-5.808475018E-1
1.003782458E0,3.291245401E-1,-6.544446945E-2,-5.361178517E-1
1.013791458E0,3.611227572E-1,-3.471057862E-2,-4.837402105E-1
1.023800458E0,3.705261350E-1,-4.380660504E-2,-4.314160049E-1
1.033808458E0,3.499874771E-1,-5.347796157E-2,-4.007729590E-1
1.043817458E0,2.982819378E-1,-7.172807306E-2,-3.923776150E-1
1.053826458E0,2.095515579E-1,-9.175179899E-2,-3.959604800E-1
1.063834458E0,7.536073029E-2,-1.068481952E-1,-3.967274725E-1
1.073843458E0,-9.545085579E-2,-8.858548105E-2,-4.085422456E-1
1.083852458E0,-2.838378251E-1,-7.675252855E-2,-4.308280945E-1
1.093860458E0,-4.474349916E-1,-9.072092175E-2,-4.506722093E-1
1.103869458E0,-5.443155169E-1,-1.281644255E-1,-4.706339538E-1
1.113878458E0,-5.538884997E-1,-1.547636986E-1,-4.730059206E-1
1.123886458E0,-4.806443453E-1,-1.455486268E-1,-4.549259841E-1
1.133895458E0,-3.608951867E-1,-1.295442283E-1,-4.403765500E-1
1.143904458E0,-2.253125906E-1,-8.928816020E-2,-4.326147735E-1
1.153912458E0,-9.744561464E-2,-4.996990040E-2,-4.217360318E-1
1.163921458E0,1.462046616E-2,-2.561235987E-2,-4.021207690E-1
1.173930458E0,1.015146002E-1,-4.828473181E-2,-3.791475892E-1
1.183938458E0,1.374371797E-1,-9.172568470E-2,-3.673931956E-1
1.193947458E0,1.231381446E-1,-1.221111193E-1,-3.559083045E-1
1.203956458E0,7.669048011E-2,-1.568144858E-1,-3.537839055E-1
1.213965458E0,1.583557576E-2,-1.782968491E-1,-3.728204072E-1
1.223973458E0,-4.784327000E-2,-1.674450040E-1,-4.085416496E-1
1.233982458E0,-9.780531377E-2,-1.312017292E-1,-4.732236564E-1
1.243991458E0,-1.078137383E-1,-9.963022172E-2,-5.646726489E-1
1.253999458E0,-1.252006292E-1,-9.457089752E-2,-6.548028588E-1
1.264008458E0,-1.268874854E-1,-6.737016886E-2,-7.363325953E-1
1.274017458E0,-1.245035529E-1,-3.492680937E-2,-8.060438633E-1
1.284025458E0,-1.169385761E-1,-1.288649067E-2,-8.601459861E-1
1.294034458E0,-1.062329933E-1,1.095932443E-2,-8.931038380E-1
1.304043458E0,-8.108902723E-2,2.663655393E-2,-8.969744444E-1
1.314051458E0,-3.519458696E-2,1.126401685E-2,-8.832439780E-1
1.324060458E0,1.414659899E-2,-7.427911740E-3,-8.515965939E-1
1.334069458E0,5.252289027E-2,-3.029078059E-2,-8.282796741E-1
1.344077458E0,6.850851327E-2,-6.460721046E-2,-8.290935755E-1
1.354086458E0,6.530024111E-2,-9.717579186E-2,-8.561370373E-1
1.364095458E0,4.699819535E-2,-1.285411716E-1,-8.982586265E-1
1.374103458E0,4.457785282E-3,-1.410043240E-1,-9.596992731E-1
1.384112458E0,-5.099961534E-2,-1.403742135E-1,-1.024337173E0
1.394121458E0,-1.085102111E-1,-1.371485442E-1,-1.099877119E0
1.404129458E0,-1.516227871E-1,-1.099608690E-1,-1.176926136E0
1.414138458E0,-1.815139949E-1,-8.123771846E-2,-1.250063658E0
1.424147458E0,-2.012749165E-1,-4.518144578E-2,-1.310113668E0
1.434155458E0,-2.132470459E-1,-1.196312718E-2,-1.347440004E0
1.444164458E0,-2.202972323E-1,1.382505987E-2,-1.363060474E0
1.454173458E0,-2.118565738E-1,1.356079988E-2,-1.368467927E0
1.464181458E0,-1.896788329E-1,-1.034506503E-2,-1.363872886E0
1.474190458E0,-1.700324863E-1,-6.993421912E-2,-1.361046076E0
1.484199458E0,-1.587947458E-1,-1.251119971E-1,-1.359228730E0
1.494207458E0,-1.573769152E-1,-1.708890796E-1,-1.349436641E0
1.504216458E0,-1.715582460E-1,-1.979081780E-1,-1.345403790E0
1.514225458E0,-1.999917179E-1,-2.076027691E-1,-1.347715616E0
1.524233458E0,-2.389124930E-1,-1.902818382E-1,-1.359912872E0
1.534242458E0,-2.930926383E-1,-1.394491196E-1,-1.369041681E0
1.544251458E0,-3.485063612E-1,-9.787291288E-2,-1.380674362E0
1.554259458E0,-3.976791799E-1,-7.559614629E-2,-1.393315911E0
1.564268458E0,-4.307764173E-1,-5.978203565E-2,-1.402102947E0
1.574277458E0,-4.400959313E-1,-5.478654057E-2,-1.409803391E0
1.584285458E0,-4.169093966E-1,-5.271566659E-2,-1.413003683E0
1.594294458E0,-3.684218824E-1,-5.737067759E-2,-1.415922523E0
1.604303458E0,-2.956246436E-1,-6.588613242E-2,-1.409346104E0
1.614311458E0,-2.165652514E-1,-8.055961877E-2,-1.383364081E0
1.624320458E0,-1.458367556E-1,-7.845785469E-2,-1.360419393E0
1.634329458E0,-8.845452964E-2,-5.895640701E-2,-1.344554901E0
1.644337458E0,-4.244709760E-2,-1.372074988E-2,-1.336085796E0
1.654346458E0,-5.126773380E-3,2.779339254E-2,-1.333558083E0
1.664355458E0,2.133253217E-2,3.394316509E-2,-1.339163303E0
1.674363458E0,3.788606077E-2,1.857405528E-2,-1.339437008E0
1.684372458E0,5.311214924E-2,1.723714732E-2,-1.341863155E0
1.694381458E0,6.768439710E-2,1.716602221E-2,-1.345826268E0
1.704389458E0,7.802625000E-2,3.125680611E-2,-1.350758433E0
1.714398458E0,8.708001673E-2,5.523055419E-2,-1.352962613E0
1.724407458E0,9.665142000E-2,9.223198146E-2,-1.349593878E0
1.734415458E0,1.125729978E-1,1.506474316E-1,-1.335791349E0
1.744424458E0,1.288579553E-1,2.099810541E-1,-1.322268605E0
1.754433458E0,1.383171231E-1,2.433664501E-1,-1.318930507E0
1.764441458E0,1.439038962E-1,2.569022477E-1,-1.316709876E0
1.774450458E0,1.391128600E-1,2.537859082E-1,-1.312243819E0
1.784459458E0,1.274945587E-1,2.572663724E-1,-1.302897692E0
1.794467458E0,9.107752144E-2,2.529029548E-1,-1.298460603E0
1.804476458E0,3.469680622E-2,2.430220842E-1,-1.295687437E0
1.814485458E0,-1.439896040E-2,2.488308102E-1,-1.295370936E0
1.824494333E0,-5.077081546E-2,2.595622838E-1,-1.289556503E0
1.834503333E0,-5.980493873E-2,2.673393786E-1,-1.282279849E0
1.844512333E0,-4.695358872E-2,2.651087344E-1,-1.258974195E0
1.854520333E0,-1.695265621E-2,2.663375437E-1,-1.226473570E0
1.864529333E0,1.651662029E-2,2.578803897E-1,-1.195195556E0
1.874538333E0,4.425454140E-2,2.460474670E-1,-1.171129227E0
1.884546333E0,5.177397653E-2,2.343276888E-1,-1.151077747E0
1.894555333E0,3.930366784E-2,2.252453864E-1,-1.139572978E0
1.904564333E0,2.695485577E-2,2.117940336E-1,-1.128253698E0
1.914572333E0,1.577757671E-2,1.866680682E-1,-1.122923851E0
1.924581333E0,2.816713415E-2,1.660591960E-1,-1.097944975E0
1.934590333E0,5.563679710E-2,1.363426596E-1,-1.060700059E0
1.944598333E0,7.890670747E-2,1.069520116E-1,-1.015324235E0
1.954607333E0,8.523851633E-2,1.213954017E-1,-9.861917496E-1
1.964616333E0,8.690752089E-2,1.495130658E-1,-9.811538458E-1
1.974624333E0,7.455257326E-2,1.644478887E-1,-1.004217029E0
1.984633333E0,5.264088511E-2,1.865252256E-1,-1.051312923E0
1.994642333E0,4.573679180E-4,1.962869167E-1,-1.121569991E0
2.004650333E0,-7.235611975E-2,2.091310769E-1,-1.200083137E0
2.014659333E0,-1.629718989E-1,2.219555974E-1,-1.276972532E0
2.024668333E0,-2.615943551E-1,2.022748441E-1,-1.330729723E0
2.034676333E0,-3.481094241E-1,1.087319329E-1,-1.346584916E0
2.044685333E0,-3.869854212E-1,-5.910755135E-3,-1.330628037E0
2.054694333E0,-3.362495303E-1,-6.758593023E-2,-1.275846004E0
2.064702333E0,-1.874813586E-1,-7.932301611E-2,-1.201283574E0
2.074711333E0,7.810099423E-2,3.084026277E-3,-1.122790337E0
2.084720333E0,4.608760476E-1,8.443347365E-2,-1.044003844E0
2.094728333E0,8.274877667E-1,6.167411059E-2,-9.871585369E-1
2.104737333E0,1.066391945E0,4.750742763E-2,-9.629381299E-1
2.114746333E0,1.127957582E0,4.520736262E-2,-9.491706491E-1
2.124754333E0,1.055644870E0,7.563078403E-2,-9.347173572E-1
2.134763333E0,9.233848453E-1,1.376858652E-1,-9.218580127E-1
2.144772333E0,7.491208911E-1,1.891128421E-1,-9.267563820E-1
2.154780333E0,5.640811920E-1,2.466167361E-1,-9.482454062E-1
2.164789333E0,3.867143989E-1,2.608446777E-1,-9.818564057E-1
2.174798333E0,2.235097736E-1,2.172432244E-1,-1.003093481E0
2.184806333E0,9.274350107E-2,1.235569343E-1,-1.001938701E0
2.194815333E0,-9.510162286E-3,8.841009811E-3,-9.837927222E-1
2.204823333E0,-9.697761387E-2,-9.808218479E-2,-9.589154124E-1
2.214832333E0,-1.364160925E-1,-1.656325459E-1,-9.505847692E-1
2.224841333E0,-1.380960047E-1,-2.482086420E-1,-9.307692647E-1
2.234849333E0,-1.106317863E-1,-3.105010688E-1,-9.021316767E-1
2.244858333E0,-6.303790212E-2,-3.506708741E-1,-8.731008172E-1
2.254867333E0,-1.293115038E-2,-3.509743512E-1,-8.420246243E-1
2.264875333E0,2.720774710E-2,-3.075272739E-1,-8.201076388E-1
2.274884333E0,4.549074546E-2,-2.278158516E-1,-7.987031341E-1
2.284893333E0,6.788766384E-2,-1.449923366E-1,-7.851010561E-1
2.294901333E0,9.692224115E-2,-9.942982346E-2,-7.798415422E-1
2.304910333E0,1.054659262E-1,-6.592939049E-2,-7.647595406E-1
2.314919333E0,8.288289607E-2,-3.866161779E-2,-7.486060858E-1
2.324927333E0,4.315438867E-2,-2.595407888E-2,-7.363235354E-1
2.334936333E0,-1.887721568E-2,-3.531902283E-2,-7.220868468E-1
2.344945333E0,-8.002632856E-2,-7.607364655E-2,-7.146561146E-1
2.354953333E0,-1.347386688E-1,-1.380905509E-1,-7.028505802E-1
2.364962333E0,-1.796757877E-1,-2.086576670E-1,-6.889052391E-1
2.374971333E0,-2.231957316E-1,-2.623172700E-1,-6.770075560E-1
2.384979333E0,-2.718474269E-1,-2.842164636E-1,-6.619660258E-1
2.394988333E0,-3.025870025E-1,-2.700348198E-1,-6.428499818E-1
2.404997333E0,-3.205819726E-1,-2.696486712E-1,-6.279171109E-1
2.415005333E0,-3.099727333E-1,-2.594269216E-1,-6.017225385E-1
2.425014333E0,-2.839235663E-1,-2.437113374E-1,-5.628978610E-1
2.435023333E0,-2.489332110E-1,-2.218295187E-1,-5.180766582E-1
2.445031333E0,-2.131621689E-1,-2.010885477E-1,-4.770692885E-1
2.455040333E0,-1.956850886E-1,-1.892974675E-1,-4.476406276E-1
2.465048333E0,-1.843922138E-1,-1.851730347E-1,-4.391843081E-1
2.475057333E0,-1.598380059E-1,-2.027295530E-1,-4.474452436E-1
2.485066333E0,-1.109711230E-1,-2.308290899E-1,-4.659901559E-1
2.495074333E0,-4.865225405E-2,-2.391718030E-1,-4.742773175E-1
2.505083333E0,-5.544731393E-3,-2.323727459E-1,-4.686303735E-1
2.515092333E0,2.145252191E-2,-1.869275421E-1,-4.554704130E-1
2.525100333E0,3.498297557E-2,-1.428125501E-1,-4.324577749E-1
2.535109333E0,3.960568458E-2,-1.106611714E-1,-4.143179357E-1
2.545118333E0,5.560968444E-2,-9.895791113E-2,-4.162676334E-1
2.555126333E0,5.623922497E-2,-1.189699844E-1,-4.309830070E-1
2.565135333E0,1.763484068E-2,-1.533439308E-1,-4.472069740E-1
2.575144333E0,-6.174089015E-2,-1.596283615E-1,-4.618017972E-1
2.585152333E0,-1.441473514E-1,-1.564051360E-1,-4.831920266E-1
2.595161333E0,-1.957214177E-1,-1.412598938E-1,-5.028512478E-1
2.605170333E0,-2.189039737E-1,-1.010906249E-1,-5.273312926E-1
2.615178333E0,-2.228247523E-1,-5.271425843E-2,-5.429128408E-1
2.625187333E0,-2.111936510E-1,-1.992355473E-2,-5.572569370E-1
2.635196333E0,-2.058688402E-1,-5.251344759E-3,-5.655672550E-1
2.645204333E0,-2.065050602E-1,1.762068085E-2,-5.808889866E-1
2.655213333E0,-2.092797458E-1,2.719221078E-2,-6.002845764E-1
2.665221333E0,-1.977573186E-1,4.062759131E-2,-6.285257936E-1
2.675230333E0,-1.587754935E-1,7.342226058E-2,-6.482571363E-1
2.685239333E0,-9.550437331E-2,1.150685027E-1,-6.529927850E-1
2.695247333E0,-1.364086755E-2,1.593342721E-1,-6.240656376E-1
2.705256333E0,7.647810876E-2,1.706188917E-1,-5.722421408E-1
2.715265333E0,1.498557180E-1,1.408848315E-1,-5.072051287E-1
2.725273333E0,2.096101195E-1,9.141100943E-2,-4.408351779E-1
2.735282333E0,2.533327341E-1,2.314437181E-2,-3.789795041E-1
2.745291333E0,2.740915418E-1,-4.111211374E-2,-3.128092885E-1
2.755299333E0,2.605656981E-1,-1.064664051E-1,-2.587684989E-1
2.765308333E0,2.145894319E-1,-1.489310265E-1,-2.015014738E-1
2.775317333E0,1.425910294E-1,-1.744337976E-1,-1.474265456E-1
2.785325333E0,6.744886935E-2,-2.042193860E-1,-1.105630621E-1
2.795334333E0,4.421332851E-3,-2.260338366E-1,-9.793252498E-2
2.805343333E0,-1.802272350E-2,-2.386883795E-1,-1.209480911E-1
2.815351333E0,-2.747355960E-2,-2.903593481E-1,-1.574427038E-1
2.825359458E0,-2.625116706E-2,-3.230536580E-1,-1.947178990E-1
2.835367458E0,-2.154325694E-2,-3.468951881E-1,-2.553144991E-1
2.845376458E0,-2.482560463E-2,-3.403400779E-1,-3.454768658E-1
2.855385458E0,-6.057335413E-4,-2.676874995E-1,-4.704781175E-1
2.865393458E0,3.957230970E-2,-1.898262650E-1,-5.843213201E-1
2.875402458E0,8.720835298E-2,-9.682953358E-2,-6.597972512E-1
2.885411458E0,1.445478052E-1,2.824688889E-2,-6.882557869E-1
2.895419458E0,2.219235599E-1,1.687760353E-1,-6.769945621E-1
2.905428458E0,3.077971637E-1,2.193715721E-1,-6.331786513E-1
2.915437458E0,3.348722756E-1,2.419737875E-1,-5.541547537E-1
2.925445458E0,3.328533471E-1,2.333717793E-1,-4.790232182E-1
2.935454458E0,2.931949794E-1,1.485116333E-1,-4.265528023E-1
2.945463458E0,2.416281998E-1,1.890304126E-2,-3.845241368E-1
2.955471458E0,1.817263216E-1,-1.429396719E-1,-3.651765585E-1
2.965480458E0,1.058621854E-1,-2.899965048E-1,-3.605250716E-1
2.975488458E0,1.441226341E-2,-3.680619597E-1,-3.546476960E-1
2.985497458E0,-6.426817179E-2,-3.544207215E-1,-3.579108715E-1
2.995506458E0,-1.361300647E-1,-2.786141634E-1,-3.601469696E-1
3.005514458E0,-1.897059381E-1,-1.648036838E-1,-3.550329208E-1
3.015523458E0,-2.413678169E-1,-8.022686094E-2,-3.468728065E-1
3.025532458E0,-2.811525166E-1,-3.701228648E-2,-3.403619230E-1
3.035540458E0,-3.097969592E-1,-4.265711829E-2,-3.310888112E-1
3.045549458E0,-3.160439432E-1,-5.260162801E-2,-3.026750088E-1
3.055558458E0,-2.921821177E-1,-6.786473095E-2,-2.611638606E-1
3.065566458E0,-2.541702986E-1,-8.285592496E-2,-2.139329463E-1
3.075575458E0,-2.178997695E-1,-8.231105655E-2,-1.631170958E-1
3.085584458E0,-2.066686898E-1,-7.998984307E-2,-1.162087023E-1
3.095592458E0,-2.089787126E-1,-9.004639089E-2,-8.142912388E-2
3.105601458E0,-2.307226211E-1,-1.195014790E-1,-5.375568196E-2
3.115609458E0,-2.677187920E-1,-1.200380623E-1,-2.446883917E-2
3.125618458E0,-3.119568527E-1,-1.258570552E-1,8.166335523E-3
3.135627458E0,-3.570439816E-1,-1.352889687E-1,3.645361587E-2
3.145635458E0,-3.841054142E-1,-1.310436279E-1,6.317576766E-2
3.155644458E0,-3.954378366E-1,-1.329681128E-1,8.027905971E-2
3.165653458E0,-3.753115237E-1,-1.392782032E-1,8.278775215E-2
3.175661458E0,-2.994811237E-1,-1.721214056E-1,8.619259298E-2
3.185670458E0,-1.699225903E-1,-2.212013304E-1,1.035236493E-1
3.195679458E0,-1.905678026E-2,-2.518482804E-1,1.338970959E-1
3.205687458E0,1.229597405E-1,-2.548672557E-1,1.707392633E-1
3.215696458E0,2.488481253E-1,-2.116178721E-1,1.970847249E-1
3.225704458E0,3.370903432E-1,-1.425932646E-1,2.200856507E-1
3.235713458E0,3.771731555E-1,-1.080724522E-1,2.385815233E-1
3.245722458E0,3.831618130E-1,-9.259229898E-2,2.589113116E-1
3.255730458E0,3.577682078E-1,-9.149404615E-2,2.802981734E-1
3.265739458E0,3.072097003E-1,-1.075904593E-1,2.879904509E-1
