"Time (s)","X (rad/s)","Y (rad/s)","Z (rad/s)"
1.967770833E-2,-2.106187642E-1,1.056139097E-1,4.037444666E-2
2.968470834E-2,-2.842609584E-1,1.515675634E-1,-9.172006976E-4
3.969070833E-2,-3.153738678E-1,1.563569903E-1,-3.925367072E-2
4.969670833E-2,-2.853295803E-1,9.940344095E-2,-6.213275343E-2
5.970370834E-2,-2.236925662E-1,4.098327458E-2,-8.898301423E-2
6.970970833E-2,-1.616306603E-1,-6.114705466E-3,-1.609495580E-1
7.971670834E-2,-8.320083469E-2,-3.066638485E-2,-2.003523558E-1
8.972270833E-2,9.723151103E-3,-4.582937434E-2,-2.007290572E-1
9.972970834E-2,1.061346382E-1,-1.916473731E-2,-1.794160455E-1
1.097357083E-1,1.753240228E-1,1.922543347E-2,-1.453424096E-1
1.197427083E-1,2.152722329E-1,5.709265545E-2,-1.172487214E-1
1.297487083E-1,2.280077487E-1,6.043496728E-2,-9.667541832E-2
1.397547083E-1,2.097280771E-1,2.552678622E-2,-8.278650790E-2
1.497617083E-1,1.853794158E-1,-3.192489222E-2,-6.371537596E-2
1.597677083E-1,1.630823612E-1,-9.363832325E-2,-4.024493694E-2
1.697747083E-1,1.513480842E-1,-1.329502165E-1,-2.847897634E-2
1.797807083E-1,1.393300295E-1,-1.478764415E-1,-2.381178737E-2
1.897877083E-1,1.184651032E-1,-1.279674321E-1,-1.503288746E-2
1.997937083E-1,7.171970606E-2,-9.613279253E-2,-1.210660487E-2
2.098007083E-1,-2.019244712E-3,-6.252381206E-2,-3.167275339E-2
2.198067083E-1,-9.034351259E-2,-3.572895005E-2,-5.799996480E-2
2.298127083E-1,-1.650124043E-1,-9.414291941E-3,-6.734625250E-2
2.398197083E-1,-1.975298673E-1,4.054767638E-2,-5.258008838E-2
2.498257083E-1,-1.799666286E-1,1.017453223E-1,-1.810615696E-2
2.598327083E-1,-1.250490546E-1,1.714735329E-1,2.856920287E-2
2.698387083E-1,-6.005194783E-2,2.146797925E-1,6.427600235E-2
2.798457083E-1,-7.367162500E-3,2.462694049E-1,7.485941052E-2
2.898517083E-1,1.278605685E-2,2.380155772E-1,6.082286313E-2
2.998577083E-1,-5.591885187E-3,1.799695939E-1,4.445400834E-2
3.098647083E-1,-6.471356004E-2,7.325817645E-2,3.735852987E-2
3.198707083E-1,-1.481027156E-1,-7.238158584E-2,4.868575186E-2
3.298777083E-1,-2.034538090E-1,-2.038414180E-1,7.624775171E-2
3.398837083E-1,-2.083572149E-1,-2.972717583E-1,7.584881037E-2
3.498907083E-1,-1.817538142E-1,-3.217582405E-1,5.501605198E-2
3.598967083E-1,-1.575669944E-1,-2.818100154E-1,1.622417755E-2
3.699037083E-1,-1.493530422E-1,-2.015356123E-1,-1.220868155E-2
3.799097083E-1,-1.419728994E-1,-1.129516810E-1,-1.574296132E-2
3.899157083E-1,-1.442959309E-1,-4.923003167E-2,-2.611028496E-3
3.999227083E-1,-1.314437836E-1,2.316054329E-2,2.110575140E-2
4.099287083E-1,-1.028727591E-1,7.963216305E-2,2.557018027E-2
4.199357083E-1,-6.717628241E-2,1.107791662E-1,2.425484359E-2
4.299417083E-1,-4.599338770E-2,1.221019179E-1,2.699920908E-2
4.399487083E-1,-5.279962718E-2,8.153291792E-2,2.172135934E-2
4.499547083E-1,-7.655571401E-2,2.240785398E-4,1.253402419E-2
4.599617083E-1,-1.012434810E-1,-8.811084181E-2,-2.136797411E-3
4.699677083E-1,-1.169985458E-1,-1.703391224E-1,-1.967664063E-2
4.799737083E-1,-9.936442971E-2,-2.309784889E-1,-2.733003348E-2
4.899807083E-1,-6.080112234E-2,-2.510108352E-1,-3.127609566E-2
4.999867083E-1,-5.546923727E-3,-2.449060678E-1,-4.072871804E-2
5.099937083E-1,5.911777914E-2,-2.128976285E-1,-5.479605123E-2
5.199997083E-1,1.146201864E-1,-1.747387797E-1,-7.481583208E-2
5.300067083E-1,1.510688663E-1,-1.201099157E-1,-1.053700745E-1
5.400127083E-1,1.740090698E-1,-5.075294152E-2,-1.363679320E-1
5.500187083E-1,1.840403229E-1,8.550963365E-3,-1.553961784E-1
5.600257083E-1,1.755802482E-1,4.709196463E-2,-1.639598459E-1
5.700317083E-1,1.550798565E-1,6.064434722E-2,-1.605966240E-1
5.800387083E-1,1.253563166E-1,4.673039541E-2,-1.520460099E-1
5.900445833E-1,9.266211838E-2,-2.590534743E-3,-1.520967484E-1
6.000515833E-1,7.139784843E-2,-4.993594810E-2,-1.662104428E-1
6.100575833E-1,7.336793840E-2,-7.414127886E-2,-1.983436495E-1
6.200645833E-1,7.964021713E-2,-5.437476560E-2,-2.359813154E-1
6.300705833E-1,6.943348050E-2,2.058923803E-2,-2.647268176E-1
6.400765833E-1,3.122324310E-2,1.244730279E-1,-2.606732249E-1
6.500835833E-1,-8.240132593E-3,1.963368505E-1,-2.419476658E-1
6.600895833E-1,-2.743460052E-2,2.377516627E-1,-2.123660743E-1
6.700965833E-1,-1.937399618E-2,2.299985290E-1,-1.908451468E-1
6.801025833E-1,2.397507615E-2,2.005117387E-1,-1.830295771E-1
6.901095833E-1,8.341376483E-2,1.455701739E-1,-1.867652535E-1
7.001155833E-1,1.374623477E-1,1.002732590E-1,-1.889490485E-1
7.101215833E-1,1.699766666E-1,4.540914670E-2,-1.507863253E-1
7.201285833E-1,2.036134601E-1,-4.815622419E-2,-6.637264043E-2
7.301345833E-1,2.409215719E-1,-1.862124950E-1,3.369373456E-2
7.401415833E-1,2.703633606E-1,-3.803638518E-1,1.207830906E-1
7.501475833E-1,3.036790192E-1,-6.039650440E-1,1.648873240E-1
7.601545833E-1,3.266181648E-1,-8.148421645E-1,1.576134264E-1
7.701605833E-1,3.383363783E-1,-9.821809530E-1,1.242549196E-1
7.801665833E-1,3.341842294E-1,-1.091046214E0,7.338535041E-2
7.901735833E-1,3.060036600E-1,-1.113420486E0,6.279666908E-3
8.001795833E-1,2.490213513E-1,-1.013463259E0,-6.490689516E-2
8.101865833E-1,1.685943156E-1,-8.017976880E-1,-1.037802994E-1
8.201925833E-1,9.654195607E-2,-5.062502027E-1,-1.095769331E-1
8.301995833E-1,6.693527102E-2,-1.725905985E-1,-8.920837194E-2
8.402055833E-1,7.118833810E-2,1.073009819E-1,-6.937848032E-2
8.502125833E-1,9.713385999E-2,2.771680355E-1,-7.740039378E-2
8.602185833E-1,1.410139799E-1,3.439159095E-1,-9.521161765E-2
8.702245833E-1,1.679560691E-1,3.236663938E-1,-1.191784889E-1
8.802315833E-1,1.742531061E-1,2.445771843E-1,-1.393596530E-1
8.902375833E-1,1.617850512E-1,1.081550792E-1,-1.278463900E-1
9.002445833E-1,1.429620981E-1,-5.441331863E-2,-1.212822348E-1
9.102505833E-1,1.489319056E-1,-1.848768145E-1,-1.317250133E-1
9.202575833E-1,1.815798730E-1,-2.533429563E-1,-1.551097035E-1
9.302635833E-1,1.989196390E-1,-2.620986104E-1,-1.981668919E-1
9.402695833E-1,1.847244501E-1,-2.515575588E-1,-2.511438131E-1
9.502765833E-1,1.369559616E-1,-2.258094847E-1,-3.064458072E-1
9.602825833E-1,5.351139605E-2,-1.923822761E-1,-3.552250564E-1
9.702895833E-1,-3.648389503E-2,-1.498099267E-1,-3.859634995E-1
9.802955833E-1,-1.103844866E-1,-8.234966546E-2,-4.007142186E-1
9.903025833E-1,-1.677684337E-1,6.528230850E-3,-3.923075199E-1
1.000308583E0,-1.963287145E-1,1.167807057E-1,-3.705953062E-1
1.010314583E0,-1.820536405E-1,2.241987735E-1,-3.427519500E-1
1.020321583E0,-1.389900595E-1,3.150045574E-1,-3.101370037E-1
1.030327583E0,-9.313921630E-2,3.598642647E-1,-2.667311728E-1
1.040334583E0,-6.345375627E-2,3.209008873E-1,-2.093211412E-1
1.050340583E0,-3.814932331E-2,2.252484262E-1,-1.530245245E-1
1.060347583E0,5.041024182E-3,7.532470673E-2,-9.090016782E-2
1.070353583E0,7.296424359E-2,-1.094828770E-1,-3.352538869E-2
1.080359583E0,1.645980179E-1,-2.519148588E-1,1.958656497E-2
1.090366583E0,2.450028062E-1,-3.247043490E-1,6.324448436E-2
1.100372583E0,3.038570583E-1,-3.644810617E-1,9.520028532E-2
1.110379583E0,3.482216299E-1,-3.927385509E-1,1.157578379E-1
1.120385583E0,3.545602262E-1,-4.153858125E-1,1.140393019E-1
1.130392583E0,3.186101615E-1,-4.393272102E-1,8.198060840E-2
1.140398583E0,2.482414544E-1,-4.075532854E-1,3.923314437E-2
1.150404583E0,1.410836726E-1,-3.187486827E-1,1.472790958E-3
1.160411583E0,8.699537255E-3,-1.833538264E-1,-1.987510920E-2
1.170417583E0,-1.204688326E-1,-2.065039426E-2,5.356245674E-4
1.180424583E0,-2.039714456E-1,1.365317702E-1,5.580180883E-2
1.190430583E0,-2.154707015E-1,2.651953101E-1,1.299742162E-1
1.200437583E0,-1.469877809E-1,3.106842339E-1,1.978760362E-1
1.210443583E0,-9.060285054E-3,2.656037211E-1,2.506389618E-1
1.220449583E0,1.796859354E-1,1.722708493E-1,2.852392793E-1
1.230456583E0,3.772609532E-1,4.704684392E-2,2.949214876E-1
1.240462583E0,5.292389989E-1,-5.980263650E-2,2.943497002E-1
1.250469583E0,6.085305810E-1,-9.575799108E-2,2.862076759E-1
1.260475583E0,5.970896482E-1,-5.523906648E-2,2.783537507E-1
1.270482583E0,5.097218156E-1,5.030359328E-2,2.862127423E-1
1.280488583E0,3.803355694E-1,2.063286155E-1,3.012585342E-1
1.290494583E0,2.449681312E-1,4.080409408E-1,2.939402163E-1
1.300501583E0,1.252822131E-1,6.061985493E-1,2.467447519E-1
1.310507583E0,1.520671975E-2,7.520017028E-1,1.685530394E-1
1.320514583E0,-8.474571258E-2,8.274413347E-1,8.108576387E-2
1.330520583E0,-1.896612048E-1,8.486205935E-1,-6.640126463E-3
1.340527583E0,-2.952675223E-1,8.291691542E-1,-8.435250074E-2
1.350533583E0,-3.880484998E-1,7.821450233E-1,-1.203518808E-1
1.360539583E0,-4.571695328E-1,7.356909513E-1,-1.197015345E-1
1.370546583E0,-4.727118313E-1,6.711359024E-1,-6.957191974E-2
1.380552583E0,-4.089842439E-1,5.941678882E-1,2.820444107E-2
1.390559583E0,-2.487148792E-1,4.893756211E-1,1.374746263E-1
1.400565583E0,-1.356042549E-2,3.327524662E-1,2.207780480E-1
1.410572583E0,2.322443277E-1,1.380928904E-1,2.722024918E-1
1.420578583E0,4.389093816E-1,-7.526145875E-2,2.844916582E-1
1.430584583E0,5.688778162E-1,-2.840065360E-1,2.709439099E-1
1.440591583E0,6.109679937E-1,-4.590774179E-1,2.392956913E-1
1.450597583E0,5.762956142E-1,-5.679061413E-1,2.007492483E-1
1.460604583E0,4.997323453E-1,-6.085837483E-1,1.724941730E-1
1.470610583E0,4.123567045E-1,-5.737223029E-1,1.480356604E-1
1.480617583E0,3.390633166E-1,-4.804786146E-1,1.238144711E-1
1.490623583E0,2.846873701E-1,-3.328387737E-1,8.960042149E-2
1.500629583E0,2.385486513E-1,-1.462912560E-1,4.989535734E-2
1.510636583E0,1.900634468E-1,5.369151756E-2,-3.601139877E-3
1.520642583E0,1.443084627E-1,2.484578043E-1,-7.495122403E-2
1.530649583E0,1.115877256E-1,4.340434968E-1,-1.295374632E-1
1.540655583E0,7.475300878E-2,5.794877410E-1,-1.727962494E-1
1.550662583E0,3.103736229E-2,6.704989672E-1,-1.981326491E-1
1.560668583E0,-1.204832457E-2,7.018246651E-1,-1.955403388E-1
1.570674583E0,-5.454153940E-2,6.549773812E-1,-1.719300449E-1
1.580681583E0,-8.683955669E-2,5.448396802E-1,-1.316904724E-1
1.590688083E0,-9.667734057E-2,4.003442526E-1,-8.424578607E-2
1.600695083E0,-5.929242074E-2,2.488455474E-1,-2.505223826E-2
1.610701083E0,2.052037418E-2,1.062464640E-1,4.071728513E-2
1.620707083E0,1.168903187E-1,-3.019446693E-2,1.037271395E-1
1.630714083E0,1.824161708E-1,-1.535309106E-1,1.457002014E-1
1.640720083E0,1.760456264E-1,-2.903838158E-1,1.829128116E-1
1.650727083E0,1.108889505E-1,-4.205490351E-1,2.150859982E-1
1.660733083E0,3.015282378E-2,-5.494116545E-1,2.167723179E-1
1.670740083E0,-4.048749059E-2,-6.328027844E-1,1.922512800E-1
1.680746083E0,-8.077259362E-2,-6.208116412E-1,1.671800166E-1
1.690752083E0,-5.985059217E-2,-5.192729831E-1,1.408875436E-1
1.700759083E0,1.152452361E-2,-3.145453930E-1,1.255456060E-1
1.710765083E0,9.552566707E-2,-7.785549760E-2,1.054795757E-1
1.720772083E0,1.615544856E-1,1.386680305E-1,9.176696092E-2
1.730778083E0,1.870255768E-1,2.377851903E-1,1.001255214E-1
1.740785083E0,2.065161765E-1,2.611432672E-1,1.138075069E-1
1.750791083E0,2.417344004E-1,2.887741625E-1,1.059216037E-1
1.760797083E0,2.543692291E-1,2.757840455E-1,7.065735757E-2
1.770804083E0,2.529681921E-1,2.170916945E-1,2.994606830E-2
1.780810083E0,2.226691395E-1,1.707684100E-1,2.226817608E-2
1.790817083E0,1.723330468E-1,1.234211624E-1,5.427079648E-2
1.800823083E0,1.382291317E-1,6.522336602E-2,1.012833118E-1
1.810829083E0,1.326188743E-1,-8.127566427E-3,1.426276118E-1
1.820836083E0,1.563513726E-1,-9.754639119E-2,1.603847742E-1
1.830842083E0,1.781820506E-1,-2.194733620E-1,1.442008168E-1
1.840849083E0,1.862269342E-1,-3.529824018E-1,9.022147208E-2
1.850855083E0,1.631083488E-1,-4.756329954E-1,-3.309089225E-3
1.860862083E0,1.016844064E-1,-5.361197591E-1,-1.193193197E-1
1.870868083E0,-9.845479392E-3,-5.086832047E-1,-2.399106622E-1
1.880874083E0,-1.558106691E-1,-3.865599334E-1,-3.365013897E-1
1.890881083E0,-2.984170914E-1,-1.743595451E-1,-3.726809919E-1
1.900887083E0,-3.976379633E-1,7.080679387E-2,-3.574754000E-1
1.910894083E0,-4.220487177E-1,2.644185722E-1,-3.110063374E-1
1.920900083E0,-3.726281822E-1,4.040313363E-1,-2.654545605E-1
1.930906083E0,-2.896566093E-1,4.682989419E-1,-2.326924950E-1
1.940913083E0,-2.170620412E-1,4.289374053E-1,-2.180930525E-1
1.950919083E0,-1.837886870E-1,3.161824942E-1,-2.243912369E-1
1.960926083E0,-1.985830814E-1,1.627953202E-1,-2.403720617E-1
1.970932083E0,-2.446482480E-1,-9.124297649E-3,-2.642261088E-1
1.980939083E0,-3.053978980E-1,-1.393406242E-1,-2.939488292E-1
1.990945083E0,-3.694277704E-1,-2.167165726E-1,-3.154553473E-1
2.000951083E0,-4.126596749E-1,-2.264304608E-1,-3.221105933E-1
2.010958083E0,-4.274789691E-1,-1.834435910E-1,-3.127941191E-1
2.020964083E0,-4.092328548E-1,-8.858844638E-2,-2.735418081E-1
2.030971083E0,-3.702359796E-1,5.632157996E-2,-2.101502419E-1
2.040977083E0,-3.210316896E-1,1.834606230E-1,-1.559647769E-1
2.050984083E0,-2.587411404E-1,2.355709672E-1,-1.040504426E-1
2.060990083E0,-1.764622629E-1,2.101851851E-1,-7.263553143E-2
2.070996083E0,-7.994579524E-2,1.318990737E-1,-6.200388074E-2
2.081003083E0,1.125814579E-2,3.020439856E-2,-5.944538116E-2
2.091009083E0,8.830801398E-2,-2.559646778E-2,-5.336042121E-2
2.101016083E0,1.425525993E-1,-3.029268421E-2,-4.217274860E-2
2.111022083E0,1.532325447E-1,-1.549813151E-2,-3.535251319E-2
2.121028083E0,1.217159033E-1,1.312007662E-3,-3.130476922E-2
2.131035083E0,5.601952597E-2,2.629049867E-2,-3.938936442E-2
2.141041083E0,-2.146621048E-2,2.078441158E-2,-5.696063489E-2
2.151048083E0,-8.350732177E-2,-1.682461984E-2,-1.013529077E-1
2.161054083E0,-1.152812243E-1,-5.555417389E-2,-1.473574191E-1
2.171061083E0,-1.170897260E-1,-5.233474076E-2,-1.592549384E-1
2.181067083E0,-1.105878875E-1,-1.513197925E-2,-1.441209912E-1
2.191073083E0,-8.911705762E-2,4.425903782E-2,-1.109897122E-1
2.201080083E0,-4.893714935E-2,1.503119767E-1,-5.216820538E-2
2.211086083E0,1.114704460E-2,2.616226673E-1,2.158374339E-2
2.221093083E0,1.006609499E-1,3.670319319E-1,1.002697647E-1
2.231099083E0,2.084959447E-1,4.355912507E-1,1.689897329E-1
2.241106083E0,3.190538883E-1,4.380940795E-1,2.252918780E-1
2.251112083E0,4.268491268E-1,3.823373020E-1,2.809833586E-1
2.261118083E0,5.225756764E-1,2.846059501E-1,3.232871592E-1
2.271125083E0,5.883039832E-1,1.678225249E-1,3.507907987E-1
2.281131083E0,6.127043962E-1,6.700856984E-2,3.633798063E-1
2.291138083E0,5.932967663E-1,2.196380869E-2,3.608079255E-1
2.301144083E0,5.373411179E-1,2.600496868E-3,3.353489041E-1
2.311150083E0,4.637730420E-1,2.377746440E-2,2.819125652E-1
2.321157083E0,3.831239939E-1,1.025732160E-1,2.413121462E-1
2.331163083E0,2.958888113E-1,2.631447911E-1,2.098055631E-1
2.341170083E0,1.991904974E-1,4.761641026E-1,1.803302318E-1
2.351176083E0,1.090449169E-1,6.486626267E-1,1.776668727E-1
2.361183083E0,3.232563287E-2,7.290072441E-1,1.822906584E-1
2.371189083E0,-2.397591993E-2,6.930761933E-1,1.907052398E-1
2.381195083E0,-4.926556349E-2,5.532966852E-1,2.103934586E-1
2.391202083E0,-4.690783098E-2,3.105081916E-1,2.299394757E-1
2.401208083E0,-2.170287445E-2,1.719880849E-2,2.519350648E-1
2.411215083E0,3.881691396E-2,-2.586320937E-1,2.686225176E-1
2.421221083E0,1.215828955E-1,-4.595092535E-1,2.864100337E-1
2.431228083E0,2.244177461E-1,-5.407065153E-1,3.011444807E-1
2.441234083E0,3.222638965E-1,-5.222364068E-1,3.136152625E-1
2.451240083E0,4.049116075E-1,-4.373671710E-1,3.211100101E-1
2.461247083E0,4.530248046E-1,-3.377955556E-1,3.106456697E-1
2.471253083E0,4.624980092E-1,-2.625396252E-1,2.630189955E-1
2.481260083E0,4.270577133E-1,-2.225591838E-1,1.704906672E-1
2.491266083E0,3.284012973E-1,-2.210796922E-1,6.860010326E-2
2.501272083E0,1.696278900E-1,-2.136838287E-1,-2.022271045E-2
2.511279083E0,1.389362733E-4,-1.333144605E-1,-8.187282085E-2
2.521285083E0,-1.189256683E-1,4.140754789E-2,-1.009258702E-1
2.531292083E0,-1.556847543E-1,2.498107105E-1,-9.736965597E-2
2.541298083E0,-1.232874095E-1,4.268656373E-1,-7.721804827E-2
2.551305083E0,-5.666007474E-2,5.710405707E-1,-6.736028194E-2
2.561311083E0,1.679203846E-2,6.577035785E-1,-6.271412969E-2
2.571317083E0,7.268097997E-2,6.527574062E-1,-6.856425852E-2
2.581324083E0,1.227689162E-1,5.755108595E-1,-8.032184839E-2
2.591329708E0,1.591397077E-1,4.463718832E-1,-8.950026333E-2
2.601336708E0,1.634508371E-1,2.675746977E-1,-8.747413009E-2
2.611342708E0,1.284850836E-1,7.885743678E-2,-8.656144887E-2
2.621348708E0,6.843640655E-2,-9.846355021E-2,-9.314718097E-2
2.631355708E0,1.243534684E-2,-2.048415393E-1,-1.089091375E-1
2.641361708E0,-4.851242527E-2,-2.765133381E-1,-1.407456249E-1
2.651368708E0,-1.126351953E-1,-2.996441424E-1,-1.903346181E-1
2.661374708E0,-1.692034155E-1,-2.739201486E-1,-2.327643633E-1
2.671381708E0,-2.275404185E-1,-2.082622498E-1,-2.448143065E-1
2.681387708E0,-2.703408599E-1,-1.263050586E-1,-2.517880797E-1
2.691393708E0,-2.784675062E-1,-4.755420983E-2,-2.748668492E-1
2.701400708E0,-2.625916004E-1,5.949847028E-2,-3.174031377E-1
2.711406708E0,-2.347661853E-1,1.310988665E-1,-3.324924409E-1
2.721413708E0,-1.817724854E-1,1.720244586E-1,-3.173417449E-1
2.731419708E0,-1.283934116E-1,1.929433197E-1,-2.883316576E-1
2.741425708E0,-8.465684205E-2,1.602759212E-1,-2.451636791E-1
2.751432708E0,-7.308427989E-2,5.969004333E-2,-1.968354732E-1
2.761438708E0,-9.139510989E-2,-5.706400424E-2,-1.408861876E-1
2.771445708E0,-1.131486073E-1,-1.958666891E-1,-9.214957058E-2
2.781451708E0,-1.065117419E-1,-3.420822322E-1,-7.425472885E-2
2.791458708E0,-3.643377498E-2,-4.267257750E-1,-5.809573084E-2
2.801464708E0,9.139182419E-2,-4.335144460E-1,-4.062379897E-2
2.811470708E0,2.382436842E-1,-3.810454607E-1,-2.417242527E-2
2.821477708E0,3.442409635E-1,-2.931289077E-1,-3.076907434E-2
2.831483708E0,3.707279265E-1,-2.216680348E-1,-6.655351818E-2
2.841490708E0,2.929492295E-1,-1.933263987E-1,-1.509709209E-1
2.851496708E0,1.257570535E-1,-1.975557208E-1,-2.437519580E-1
2.861502708E0,-8.529021591E-2,-2.197174728E-1,-3.310346603E-1
2.871509708E0,-2.896168828E-1,-2.431539744E-1,-4.166526794E-1
2.881515708E0,-4.343812764E-1,-2.457327247E-1,-4.947035611E-1
2.891522708E0,-5.008350015E-1,-2.178630978E-1,-5.455436707E-1
2.901528708E0,-5.049343705E-1,-1.689576060E-1,-5.627005696E-1
2.911535708E0,-4.408942461E-1,-7.286483794E-2,-5.389650464E-1
2.921541708E0,-3.254621923E-1,3.354975581E-2,-4.923642576E-1
2.931547708E0,-1.986492574E-1,1.184245721E-1,-4.614185393E-1
2.941554708E0,-1.114965156E-1,1.574214995E-1,-4.402165711E-1
2.951560708E0,-9.211712331E-2,1.411615908E-1,-4.338344634E-1
2.961567708E0,-1.407472491E-1,6.731399894E-2,-4.375290573E-1
2.971573708E0,-2.396544516E-1,-3.568070754E-2,-4.343981147E-1
2.981579708E0,-3.568580449E-1,-1.339617372E-1,-4.284898937E-1
2.991586708E0,-4.435203969E-1,-1.954246610E-1,-4.154164493E-1
3.001592708E0,-4.682574570E-1,-2.037608773E-1,-4.086157978E-1
3.011599708E0,-4.374343753E-1,-1.844478697E-1,-3.964502215E-1
3.021605708E0,-3.699099123E-1,-1.163947806E-1,-3.767952919E-1
3.031612708E0,-2.762127817E-1,-2.687001228E-2,-3.374476731E-1
3.041618708E0,-1.789128631E-1,5.237207934E-2,-2.996856272E-1
3.051624708E0,-1.068349332E-1,1.346281916E-1,-2.841571271E-1
3.061631708E0,-5.607135221E-2,1.762850881E-1,-2.414985895E-1
3.071637708E0,-2.905036137E-2,1.995951682E-1,-2.045775205E-1
3.081644708E0,-5.570068490E-3,2.211433351E-1,-1.633741558E-1
3.091650708E0,3.694087267E-2,2.333462983E-1,-1.197894439E-1
3.101656708E0,8.144203573E-2,2.403434962E-1,-7.071031630E-2
3.111663708E0,1.176823154E-1,2.021653056E-1,-1.778658479E-2
3.121669708E0,1.547298133E-1,1.466359943E-1,4.116834700E-2
3.131676708E0,1.740706861E-1,5.051089078E-2,8.868663013E-2
3.141682708E0,1.748762876E-1,-7.181475312E-2,1.148055792E-1
3.151689708E0,1.551117301E-1,-1.781579405E-1,1.449806690E-1
3.161695708E0,1.264867485E-1,-2.401347607E-1,1.783034801E-1
3.171701708E0,1.035877168E-1,-2.664603889E-1,2.027524859E-1
3.181708708E0,9.477798641E-2,-2.299873382E-1,2.184123993E-1
3.191714708E0,1.196578667E-1,-1.391655356E-1,2.430249453E-1
3.201721708E0,1.796269268E-1,-1.268856041E-2,2.722216845E-1
3.211727708E0,2.630787194E-1,1.241013259E-1,2.925679982E-1
3.221733708E0,3.350724876E-1,2.089296728E-1,3.029351532E-1
3.231740708E0,3.717048764E-1,1.980043352E-1,2.978536785E-1
3.241746708E0,3.880604208E-1,1.398515552E-1,2.979738116E-1
3.251753708E0,3.821574450E-1,7.670558244E-2,2.907988429E-1
3.261759708E0,3.596689105E-1,3.541460633E-2,2.742065489E-1
3.271766708E0,3.195078075E-1,2.525435947E-2,2.495266348E-1
3.281772708E0,2.674638033E-1,6.863618642E-2,2.045722157E-1
3.291778708E0,1.845063865E-1,1.129632220E-1,1.494344324E-1
