"Time (s)","X (hPa)"
-5.502510000E-1,1.004552460E3
4.555360000E-1,1.004553757E3
1.461259000E0,1.004555054E3
2.467025000E0,1.004557037E3
3.472794000E0,1.004558411E3
3.823896000E0,1.004558411E3
4.896687000E0,1.004558640E3
5.969451000E0,1.004559021E3
7.042227000E0,1.004559021E3
8.115039000E0,1.004558640E3
9.187820000E0,1.004557953E3
1.026062300E1,1.004557800E3
1.133346200E1,1.004557114E3
1.240628300E1,1.004557114E3
1.347910300E1,1.004557800E3
1.455190900E1,1.004558792E3
1.562473600E1,1.004559860E3
1.669752800E1,1.004561157E3
1.777034300E1,1.004562225E3
1.884314500E1,1.004563217E3
1.991597600E1,1.004564209E3
2.098882900E1,1.004565277E3
2.206164700E1,1.004566345E3
2.313450300E1,1.004566727E3
2.420735700E1,1.004567413E3
2.528019800E1,1.004568100E3
2.635300600E1,1.004569168E3
2.742581000E1,1.004570541E3
2.849863100E1,1.004571838E3
2.957142700E1,1.004573288E3
3.064420500E1,1.004574585E3
3.171692700E1,1.004575806E3
3.278970500E1,1.004576721E3
3.386248600E1,1.004577789E3
3.493526400E1,1.004578629E3
3.600806800E1,1.004578629E3
3.708084600E1,1.004578400E3
3.815363400E1,1.004578094E3
3.922646100E1,1.004577255E3
4.029927200E1,1.004576950E3
4.137205300E1,1.004576950E3
4.244487600E1,1.004577789E3
4.351764200E1,1.004578781E3
4.459043100E1,1.004579620E3
4.566326300E1,1.004580841E3
4.673604800E1,1.004581528E3
4.780883600E1,1.004581985E3
4.888167800E1,1.004582825E3
4.995447600E1,1.004583588E3
5.102731000E1,1.004584427E3
5.210008000E1,1.004585114E3
5.317283600E1,1.004585800E3
5.424565100E1,1.004587021E3
5.531843200E1,1.004588318E3
5.639124800E1,1.004589310E3
5.746403700E1,1.004590302E3
5.853683900E1,1.004590759E3
5.960959500E1,1.004591904E3
6.068239100E1,1.004592285E3
6.175520200E1,1.004593353E3
6.282803000E1,1.004594116E3
6.390082200E1,1.004595871E3
6.497358300E1,1.004596405E3
6.604636000E1,1.004596405E3
6.711911200E1,1.004596252E3
6.819191400E1,1.004595871E3
6.926470100E1,1.004595184E3
7.033751800E1,1.004595032E3
7.141031900E1,1.004595032E3
7.248313000E1,1.004596024E3
7.355594400E1,1.004596252E3
7.462878300E1,1.004596863E3
7.570163400E1,1.004597702E3
7.677445000E1,1.004598999E3
7.784730400E1,1.004598999E3
7.892011700E1,1.004599686E3
7.999289000E1,1.004601135E3
8.106567700E1,1.004602737E3
8.213850100E1,1.004603424E3
8.321130200E1,1.004604645E3
8.428408500E1,1.004605560E3
8.535686600E1,1.004605789E3
8.642963600E1,1.004606094E3
8.750236500E1,1.004606628E3
8.857512600E1,1.004607239E3
8.964788900E1,1.004607391E3
9.072065500E1,1.004607849E3
9.179348100E1,1.004607849E3
9.286626000E1,1.004607239E3
9.393904200E1,1.004606400E3
9.501184300E1,1.004605789E3
9.608471500E1,1.004605789E3
9.715756400E1,1.004605560E3
9.823039300E1,1.004605560E3
9.930319100E1,1.004605560E3
1.003760140E2,1.004605942E3
1.014488540E2,1.004606094E3
1.025216590E2,1.004607010E3
1.035944610E2,1.004607239E3
1.046672510E2,1.004608002E3
1.057400360E2,1.004608307E3
1.068128600E2,1.004608917E3
1.078857240E2,1.004609528E3
1.089585750E2,1.004609680E3
1.100314020E2,1.004609985E3
1.111042370E2,1.004610825E3
1.121770090E2,1.004611816E3
1.132498140E2,1.004613266E3
1.143226830E2,1.004614410E3
1.153955200E2,1.004616241E3
1.164683240E2,1.004617462E3
1.175411560E2,1.004618301E3
1.186139750E2,1.004618835E3
1.196868020E2,1.004618988E3
1.207596430E2,1.004619827E3
1.218325130E2,1.004620056E3
1.229053550E2,1.004621048E3
1.239782010E2,1.004621582E3
1.250510630E2,1.004621582E3
1.261238940E2,1.004620667E3
1.271966550E2,1.004619598E3
1.282694590E2,1.004618988E3
1.293421930E2,1.004617691E3
1.304150030E2,1.004617691E3
1.314878260E2,1.004617920E3
1.325606320E2,1.004618759E3
1.336334560E2,1.004619141E3
1.347063370E2,1.004620209E3
1.357791730E2,1.004621048E3
1.368520190E2,1.004621735E3
1.379248330E2,1.004622116E3
1.389976720E2,1.004622803E3
1.400704690E2,1.004623184E3
1.411433200E2,1.004623871E3
1.422161720E2,1.004624100E3
1.432889880E2,1.004624710E3
1.443618330E2,1.004625244E3
1.454346660E2,1.004625320E3
1.465075980E2,1.004625931E3
1.475805250E2,1.004626389E3
1.486534030E2,1.004627838E3
1.497263160E2,1.004629364E3
1.507992550E2,1.004630585E3
1.518721660E2,1.004631271E3
1.529450510E2,1.004631271E3
1.540178960E2,1.004631271E3
1.550907480E2,1.004631653E3
1.561635720E2,1.004631653E3
1.572364120E2,1.004631653E3
1.583093230E2,1.004631882E3
1.593821690E2,1.004631882E3
1.604550040E2,1.004629517E3
1.615278070E2,1.004628830E3
1.626005840E2,1.004628220E3
1.636733850E2,1.004627686E3
1.647461790E2,1.004627686E3
1.658189850E2,1.004628448E3
1.668918130E2,1.004628906E3
1.679646240E2,1.004629517E3
1.690374960E2,1.004629898E3
1.701103780E2,1.004630737E3
1.711832680E2,1.004631271E3
1.722561610E2,1.004631882E3
1.733290720E2,1.004632874E3
1.744019310E2,1.004633560E3
1.754748400E2,1.004634094E3
1.765476520E2,1.004634933E3
1.776204590E2,1.004635620E3
1.786933230E2,1.004636841E3
1.797662170E2,1.004638214E3
1.808391170E2,1.004640045E3
1.819120050E2,1.004641953E3
1.829849260E2,1.004643402E3
1.840577990E2,1.004644012E3
1.851306680E2,1.004644623E3
1.862035590E2,1.004644928E3
1.872764600E2,1.004645767E3
1.883493260E2,1.004646378E3
1.894222100E2,1.004647217E3
1.904950620E2,1.004647598E3
1.915678890E2,1.004648056E3
1.926406920E2,1.004648209E3
1.937134750E2,1.004648285E3
1.947863510E2,1.004648514E3
1.958591820E2,1.004648285E3
1.969320040E2,1.004648743E3
1.980048670E2,1.004648666E3
1.990777270E2,1.004648743E3
2.001506200E2,1.004649353E3
2.012234810E2,1.004649887E3
2.022963290E2,1.004649963E3
2.033691410E2,1.004650192E3
2.044419920E2,1.004650421E3
2.055148510E2,1.004650803E3
2.065876890E2,1.004651260E3
2.076605380E2,1.004651794E3
2.087333880E2,1.004652405E3
2.098062540E2,1.004652710E3
2.108791230E2,1.004652710E3
2.119519830E2,1.004652710E3
2.130248640E2,1.004652710E3
2.140977100E2,1.004653473E3
2.151705790E2,1.004653549E3
2.162434460E2,1.004653931E3
2.173163360E2,1.004653931E3
2.183892020E2,1.004653244E3
2.194620390E2,1.004651642E3
2.205348510E2,1.004650803E3
2.216077220E2,1.004650192E3
2.226806080E2,1.004649582E3
2.237535130E2,1.004649582E3
2.248263850E2,1.004649887E3
2.258992890E2,1.004650574E3
2.269721580E2,1.004651031E3
2.280450420E2,1.004651642E3
2.291179210E2,1.004652481E3
2.301907820E2,1.004652939E3
2.312636680E2,1.004653473E3
2.323365380E2,1.004653702E3
2.334094380E2,1.004654007E3
2.344823180E2,1.004654541E3
2.355552330E2,1.004655228E3
2.366281700E2,1.004655609E3
2.377010720E2,1.004656448E3
2.387739410E2,1.004657135E3
2.398468180E2,1.004657898E3
2.409197270E2,1.004658737E3
2.419926400E2,1.004659576E3
2.430655180E2,1.004659576E3
2.441383920E2,1.004658813E3
2.452112590E2,1.004657669E3
2.462841920E2,1.004656219E3
2.473571150E2,1.004655380E3
2.484300310E2,1.004654999E3
2.495029300E2,1.004654999E3
2.505758870E2,1.004654999E3
2.516488630E2,1.004654999E3
2.527218170E2,1.004655151E3
2.537947350E2,1.004655151E3
2.548676550E2,1.004655151E3
2.559406220E2,1.004655838E3
2.570135910E2,1.004655991E3
2.580865500E2,1.004655991E3
2.591595160E2,1.004655991E3
2.602325240E2,1.004655991E3
2.613054870E2,1.004655991E3
2.623783840E2,1.004656219E3
2.634512760E2,1.004656219E3
2.645241510E2,1.004657669E3
2.655970350E2,1.004658585E3
2.666698970E2,1.004659348E3
2.677427430E2,1.004660721E3
2.688156120E2,1.004661713E3
2.698884960E2,1.004661789E3
2.709613570E2,1.004661789E3
2.720342260E2,1.004661942E3
2.731071170E2,1.004662399E3
2.741799840E2,1.004663239E3
2.752528750E2,1.004663849E3
2.763257680E2,1.004664078E3
2.773986410E2,1.004664917E3
2.784715420E2,1.004664917E3
2.795444220E2,1.004664230E3
2.806172540E2,1.004663849E3
2.816901100E2,1.004663620E3
2.827629500E2,1.004663620E3
2.838358050E2,1.004663773E3
2.849086580E2,1.004664307E3
2.859815050E2,1.004665070E3
2.870543540E2,1.004665909E3
2.881271960E2,1.004666595E3
2.892000430E2,1.004666595E3